 4.00000000e-03 -2.80000000e-05 -1.09000000e-04 -8.20000000e-05 6.80000000e-05 2.70000000e-05 -9.60000000e-05 8.02138980e+01
 8.00000000e-03 -1.60000000e-05 -1.04000000e-04 -8.90000000e-05 6.00000000e-05 3.70000000e-05 -9.60000000e-05 0.00000000e+00
 1.20000000e-02 -1.10000000e-05 -1.10000000e-04 -9.90000000e-05 6.00000000e-05 4.40000000e-05 -1.04000000e-04 0.00000000e+00
 1.60000000e-02 -9.00000000e-06 -1.12000000e-04 -1.03000000e-04 6.00000000e-05 4.70000000e-05 -1.08000000e-04 0.00000000e+00
 2.00000000e-02 -1.10000000e-05 -1.06000000e-04 -9.50000000e-05 5.90000000e-05 4.20000000e-05 -1.00000000e-04 0.00000000e+00
 2.40000000e-02 -1.00000000e-05 -1.05000000e-04 -9.50000000e-05 5.80000000e-05 4.30000000e-05 -1.00000000e-04 0.00000000e+00
 2.80000000e-02 -1.00000000e-05 -9.50000000e-05 -8.50000000e-05 5.20000000e-05 3.70000000e-05 -9.00000000e-05 0.00000000e+00
 3.20000000e-02 -1.30000000e-05 -1.06000000e-04 -9.30000000e-05 6.00000000e-05 4.00000000e-05 -1.00000000e-04 0.00000000e+00
 3.60000000e-02 -2.50000000e-05 -1.18000000e-04 -9.40000000e-05 7.10000000e-05 3.50000000e-05 -1.06000000e-04 0.00000000e+00
 4.00000000e-02 -9.00000000e-06 -9.10000000e-05 -8.20000000e-05 5.00000000e-05 3.60000000e-05 -8.70000000e-05 0.00000000e+00
 4.40000000e-02 -2.00000000e-06 -9.30000000e-05 -9.00000000e-05 4.70000000e-05 4.40000000e-05 -9.20000000e-05 0.00000000e+00
 4.80000000e-02 -8.00000000e-06 -9.10000000e-05 -8.30000000e-05 5.00000000e-05 3.70000000e-05 -8.70000000e-05 0.00000000e+00
 5.20000000e-02 -1.20000000e-05 -1.00000000e-04 -8.80000000e-05 5.60000000e-05 3.80000000e-05 -9.40000000e-05 0.00000000e+00
 5.60000000e-02 -1.40000000e-05 -1.01000000e-04 -8.80000000e-05 5.70000000e-05 3.70000000e-05 -9.50000000e-05 0.00000000e+00
 6.00000000e-02 -2.00000000e-05 -8.60000000e-05 -6.70000000e-05 5.30000000e-05 2.40000000e-05 -7.70000000e-05 0.00000000e+00
 6.40000000e-02 -1.90000000e-05 -9.40000000e-05 -7.40000000e-05 5.60000000e-05 2.80000000e-05 -8.40000000e-05 0.00000000e+00
 6.80000000e-02 -1.40000000e-05 -8.40000000e-05 -7.00000000e-05 4.90000000e-05 2.80000000e-05 -7.70000000e-05 0.00000000e+00
 7.20000000e-02 -2.00000000e-05 -8.60000000e-05 -6.50000000e-05 5.30000000e-05 2.20000000e-05 -7.50000000e-05 0.00000000e+00
 7.60000000e-02 -2.60000000e-05 -8.70000000e-05 -6.10000000e-05 5.60000000e-05 1.80000000e-05 -7.40000000e-05 0.00000000e+00
 8.00000000e-02 -2.40000000e-05 -6.60000000e-05 -4.10000000e-05 4.50000000e-05 9.00000000e-06 -5.30000000e-05 0.00000000e+00
 8.40000000e-02 -2.10000000e-05 -4.20000000e-05 -2.10000000e-05 3.20000000e-05 -0.00000000e+00 -3.10000000e-05 0.00000000e+00
 8.80000000e-02 -3.30000000e-05 1.40000000e-05 4.70000000e-05 1.00000000e-05 -4.00000000e-05 3.00000000e-05 0.00000000e+00
 9.20000000e-02 -4.40000000e-05 5.20000000e-05 9.70000000e-05 -4.00000000e-06 -7.00000000e-05 7.40000000e-05 0.00000000e+00
 9.60000000e-02 -3.20000000e-05 6.90000000e-05 1.01000000e-04 -1.80000000e-05 -6.70000000e-05 8.50000000e-05 0.00000000e+00
 1.00000000e-01 -2.00000000e-05 6.90000000e-05 8.90000000e-05 -2.50000000e-05 -5.40000000e-05 7.90000000e-05 0.00000000e+00
 1.04000000e-01 -1.00000000e-05 3.70000000e-05 4.70000000e-05 -1.30000000e-05 -2.80000000e-05 4.20000000e-05 0.00000000e+00
 1.08000000e-01 -3.00000000e-06 3.30000000e-05 3.60000000e-05 -1.50000000e-05 -1.90000000e-05 3.40000000e-05 0.00000000e+00
 1.12000000e-01 -2.00000000e-06 5.00000000e-05 5.20000000e-05 -2.40000000e-05 -2.70000000e-05 5.10000000e-05 0.00000000e+00
 1.16000000e-01 1.00000000e-05 6.60000000e-05 5.60000000e-05 -3.80000000e-05 -2.30000000e-05 6.10000000e-05 0.00000000e+00
 1.20000000e-01 1.30000000e-05 6.80000000e-05 5.60000000e-05 -4.00000000e-05 -2.20000000e-05 6.20000000e-05 0.00000000e+00
 1.24000000e-01 1.50000000e-05 3.60000000e-05 2.10000000e-05 -2.60000000e-05 -3.00000000e-06 2.90000000e-05 0.00000000e+00
 1.28000000e-01 1.40000000e-05 4.10000000e-05 2.70000000e-05 -2.70000000e-05 -6.00000000e-06 3.40000000e-05 0.00000000e+00
 1.32000000e-01 2.30000000e-05 6.10000000e-05 3.80000000e-05 -4.20000000e-05 -8.00000000e-06 5.00000000e-05 0.00000000e+00
 1.36000000e-01 3.10000000e-05 7.30000000e-05 4.20000000e-05 -5.20000000e-05 -5.00000000e-06 5.80000000e-05 0.00000000e+00
 1.40000000e-01 4.70000000e-05 9.00000000e-05 4.20000000e-05 -6.80000000e-05 3.00000000e-06 6.60000000e-05 0.00000000e+00
 1.44000000e-01 6.00000000e-05 7.10000000e-05 1.10000000e-05 -6.60000000e-05 2.40000000e-05 4.10000000e-05 0.00000000e+00
 1.48000000e-01 6.10000000e-05 7.90000000e-05 1.80000000e-05 -7.00000000e-05 2.10000000e-05 4.90000000e-05 0.00000000e+00
 1.52000000e-01 7.00000000e-05 1.02000000e-04 3.20000000e-05 -8.60000000e-05 1.90000000e-05 6.70000000e-05 0.00000000e+00
 1.56000000e-01 9.60000000e-05 1.27000000e-04 3.10000000e-05 -1.11000000e-04 3.20000000e-05 7.90000000e-05 0.00000000e+00
 1.60000000e-01 1.06000000e-04 1.38000000e-04 3.20000000e-05 -1.22000000e-04 3.70000000e-05 8.50000000e-05 0.00000000e+00
 1.64000000e-01 1.10000000e-04 1.22000000e-04 1.20000000e-05 -1.16000000e-04 4.90000000e-05 6.70000000e-05 0.00000000e+00
 1.68000000e-01 1.10000000e-04 1.34000000e-04 2.40000000e-05 -1.22000000e-04 4.30000000e-05 7.90000000e-05 0.00000000e+00
 1.72000000e-01 1.15000000e-04 1.52000000e-04 3.60000000e-05 -1.33000000e-04 3.90000000e-05 9.40000000e-05 0.00000000e+00
 1.76000000e-01 1.18000000e-04 1.63000000e-04 4.50000000e-05 -1.41000000e-04 3.60000000e-05 1.04000000e-04 0.00000000e+00
 1.80000000e-01 1.16000000e-04 1.71000000e-04 5.40000000e-05 -1.44000000e-04 3.10000000e-05 1.13000000e-04 0.00000000e+00
 1.84000000e-01 1.19000000e-04 1.51000000e-04 3.20000000e-05 -1.35000000e-04 4.40000000e-05 9.20000000e-05 0.00000000e+00
 1.88000000e-01 1.07000000e-04 1.53000000e-04 4.60000000e-05 -1.30000000e-04 3.00000000e-05 9.90000000e-05 0.00000000e+00
 1.92000000e-01 1.00000000e-04 1.57000000e-04 5.60000000e-05 -1.29000000e-04 2.20000000e-05 1.07000000e-04 0.00000000e+00
 1.96000000e-01 9.60000000e-05 1.57000000e-04 6.10000000e-05 -1.26000000e-04 1.70000000e-05 1.09000000e-04 0.00000000e+00
 2.00000000e-01 9.50000000e-05 1.63000000e-04 6.80000000e-05 -1.29000000e-04 1.40000000e-05 1.15000000e-04 0.00000000e+00
 2.04000000e-01 9.00000000e-05 1.28000000e-04 3.90000000e-05 -1.09000000e-04 2.60000000e-05 8.30000000e-05 0.00000000e+00
 2.08000000e-01 7.80000000e-05 1.16000000e-04 3.80000000e-05 -9.70000000e-05 2.00000000e-05 7.70000000e-05 0.00000000e+00
 2.12000000e-01 7.30000000e-05 1.10000000e-04 3.70000000e-05 -9.20000000e-05 1.80000000e-05 7.40000000e-05 0.00000000e+00
 2.16000000e-01 5.80000000e-05 8.80000000e-05 3.00000000e-05 -7.30000000e-05 1.40000000e-05 5.90000000e-05 0.00000000e+00
 2.20000000e-01 4.30000000e-05 6.90000000e-05 2.60000000e-05 -5.60000000e-05 8.00000000e-06 4.80000000e-05 0.00000000e+00
 2.24000000e-01 4.10000000e-05 4.20000000e-05 2.00000000e-06 -4.20000000e-05 2.00000000e-05 2.20000000e-05 0.00000000e+00
 2.28000000e-01 3.30000000e-05 3.70000000e-05 3.00000000e-06 -3.50000000e-05 1.50000000e-05 2.00000000e-05 0.00000000e+00
 2.32000000e-01 2.30000000e-05 2.70000000e-05 4.00000000e-06 -2.50000000e-05 1.00000000e-05 1.60000000e-05 0.00000000e+00
 2.36000000e-01 3.00000000e-06 3.00000000e-06 -0.00000000e+00 -3.00000000e-06 2.00000000e-06 2.00000000e-06 0.00000000e+00
 2.40000000e-01 -2.00000000e-06 3.00000000e-06 5.00000000e-06 -1.00000000e-06 -3.00000000e-06 4.00000000e-06 0.00000000e+00
 2.44000000e-01 9.00000000e-06 -1.00000000e-05 -1.90000000e-05 0.00000000e+00 1.40000000e-05 -1.40000000e-05 0.00000000e+00
 2.48000000e-01 1.00000000e-05 -7.00000000e-06 -1.70000000e-05 -2.00000000e-06 1.40000000e-05 -1.20000000e-05 0.00000000e+00
 2.52000000e-01 1.10000000e-05 -1.00000000e-05 -2.00000000e-05 -1.00000000e-06 1.60000000e-05 -1.50000000e-05 0.00000000e+00
 2.56000000e-01 5.00000000e-06 -1.80000000e-05 -2.20000000e-05 7.00000000e-06 1.30000000e-05 -2.00000000e-05 0.00000000e+00
 2.60000000e-01 -4.00000000e-06 -2.00000000e-05 -1.60000000e-05 1.20000000e-05 6.00000000e-06 -1.80000000e-05 0.00000000e+00
 2.64000000e-01 -7.00000000e-06 -2.80000000e-05 -2.10000000e-05 1.80000000e-05 7.00000000e-06 -2.50000000e-05 0.00000000e+00
 2.68000000e-01 -6.00000000e-06 -2.90000000e-05 -2.30000000e-05 1.70000000e-05 9.00000000e-06 -2.60000000e-05 0.00000000e+00
 2.72000000e-01 -9.00000000e-06 -3.50000000e-05 -2.60000000e-05 2.20000000e-05 9.00000000e-06 -3.00000000e-05 0.00000000e+00
 2.76000000e-01 -1.40000000e-05 -4.20000000e-05 -2.70000000e-05 2.80000000e-05 7.00000000e-06 -3.50000000e-05 0.00000000e+00
 2.80000000e-01 -2.10000000e-05 -3.60000000e-05 -1.50000000e-05 2.80000000e-05 -3.00000000e-06 -2.50000000e-05 0.00000000e+00
 2.84000000e-01 -1.90000000e-05 -4.60000000e-05 -2.70000000e-05 3.30000000e-05 4.00000000e-06 -3.60000000e-05 0.00000000e+00
 2.88000000e-01 -2.50000000e-05 -4.50000000e-05 -2.10000000e-05 3.50000000e-05 -2.00000000e-06 -3.30000000e-05 0.00000000e+00
 2.92000000e-01 -2.80000000e-05 -4.30000000e-05 -1.50000000e-05 3.50000000e-05 -7.00000000e-06 -2.90000000e-05 0.00000000e+00
 2.96000000e-01 -1.30000000e-05 -3.90000000e-05 -2.50000000e-05 2.60000000e-05 6.00000000e-06 -3.20000000e-05 0.00000000e+00
 3.00000000e-01 -1.10000000e-05 -2.60000000e-05 -1.60000000e-05 1.90000000e-05 2.00000000e-06 -2.10000000e-05 0.00000000e+00
 3.04000000e-01 -1.00000000e-05 -3.70000000e-05 -2.70000000e-05 2.40000000e-05 8.00000000e-06 -3.20000000e-05 0.00000000e+00
 3.08000000e-01 -1.60000000e-05 -3.60000000e-05 -2.10000000e-05 2.60000000e-05 2.00000000e-06 -2.80000000e-05 0.00000000e+00
 3.12000000e-01 -1.10000000e-05 -3.80000000e-05 -2.70000000e-05 2.40000000e-05 8.00000000e-06 -3.20000000e-05 0.00000000e+00
 3.16000000e-01 0.00000000e+00 -4.20000000e-05 -4.20000000e-05 2.10000000e-05 2.10000000e-05 -4.20000000e-05 0.00000000e+00
 3.20000000e-01 -8.00000000e-06 -4.70000000e-05 -3.90000000e-05 2.80000000e-05 1.50000000e-05 -4.30000000e-05 0.00000000e+00
 3.24000000e-01 -1.60000000e-05 -5.10000000e-05 -3.50000000e-05 3.40000000e-05 9.00000000e-06 -4.30000000e-05 0.00000000e+00
 3.28000000e-01 -1.90000000e-05 -3.80000000e-05 -1.90000000e-05 2.80000000e-05 0.00000000e+00 -2.90000000e-05 0.00000000e+00
 3.32000000e-01 -4.00000000e-06 -2.60000000e-05 -2.20000000e-05 1.50000000e-05 9.00000000e-06 -2.40000000e-05 0.00000000e+00
 3.36000000e-01 -2.00000000e-06 -1.50000000e-05 -1.30000000e-05 9.00000000e-06 5.00000000e-06 -1.40000000e-05 0.00000000e+00
 3.40000000e-01 -1.20000000e-05 -1.10000000e-05 1.00000000e-06 1.10000000e-05 -7.00000000e-06 -5.00000000e-06 0.00000000e+00
 3.44000000e-01 -1.30000000e-05 -3.80000000e-05 -2.50000000e-05 2.50000000e-05 6.00000000e-06 -3.20000000e-05 0.00000000e+00
 3.48000000e-01 -1.90000000e-05 -3.80000000e-05 -1.90000000e-05 2.80000000e-05 -0.00000000e+00 -2.80000000e-05 0.00000000e+00
 3.52000000e-01 -3.20000000e-05 -4.40000000e-05 -1.10000000e-05 3.80000000e-05 -1.10000000e-05 -2.70000000e-05 0.00000000e+00
 3.56000000e-01 -2.60000000e-05 -4.60000000e-05 -2.00000000e-05 3.60000000e-05 -3.00000000e-06 -3.30000000e-05 0.00000000e+00
 3.60000000e-01 -2.50000000e-05 -3.20000000e-05 -8.00000000e-06 2.90000000e-05 -9.00000000e-06 -2.00000000e-05 0.00000000e+00
 3.64000000e-01 -1.90000000e-05 -3.10000000e-05 -1.20000000e-05 2.50000000e-05 -4.00000000e-06 -2.10000000e-05 0.00000000e+00
 3.68000000e-01 -1.80000000e-05 -2.50000000e-05 -7.00000000e-06 2.20000000e-05 -6.00000000e-06 -1.60000000e-05 0.00000000e+00
 3.72000000e-01 -2.20000000e-05 -2.80000000e-05 -6.00000000e-06 2.50000000e-05 -8.00000000e-06 -1.70000000e-05 0.00000000e+00
 3.76000000e-01 -1.70000000e-05 -2.40000000e-05 -7.00000000e-06 2.00000000e-05 -5.00000000e-06 -1.50000000e-05 0.00000000e+00
 3.80000000e-01 -2.20000000e-05 -2.50000000e-05 -3.00000000e-06 2.40000000e-05 -9.00000000e-06 -1.40000000e-05 0.00000000e+00
 3.84000000e-01 -2.00000000e-05 -3.70000000e-05 -1.70000000e-05 2.80000000e-05 -1.00000000e-06 -2.70000000e-05 0.00000000e+00
 3.88000000e-01 -2.10000000e-05 -2.60000000e-05 -5.00000000e-06 2.30000000e-05 -8.00000000e-06 -1.50000000e-05 0.00000000e+00
 3.92000000e-01 -1.40000000e-05 -2.40000000e-05 -1.00000000e-05 1.90000000e-05 -2.00000000e-06 -1.70000000e-05 0.00000000e+00
 3.96000000e-01 -1.00000000e-05 -3.90000000e-05 -2.90000000e-05 2.50000000e-05 1.00000000e-05 -3.40000000e-05 0.00000000e+00
 4.00000000e-01 -1.50000000e-05 -3.10000000e-05 -1.70000000e-05 2.30000000e-05 1.00000000e-06 -2.40000000e-05 0.00000000e+00
 4.04000000e-01 -1.20000000e-05 -4.40000000e-05 -3.20000000e-05 2.80000000e-05 1.00000000e-05 -3.80000000e-05 0.00000000e+00
 4.08000000e-01 -7.00000000e-06 -2.90000000e-05 -2.20000000e-05 1.80000000e-05 8.00000000e-06 -2.60000000e-05 0.00000000e+00
 4.12000000e-01 -1.00000000e-05 -2.90000000e-05 -1.80000000e-05 2.00000000e-05 4.00000000e-06 -2.30000000e-05 0.00000000e+00
 4.16000000e-01 -9.00000000e-06 -4.50000000e-05 -3.60000000e-05 2.70000000e-05 1.30000000e-05 -4.00000000e-05 0.00000000e+00
 4.20000000e-01 -8.00000000e-06 -3.80000000e-05 -3.00000000e-05 2.30000000e-05 1.10000000e-05 -3.40000000e-05 0.00000000e+00
 4.24000000e-01 -2.00000000e-06 -3.90000000e-05 -3.60000000e-05 2.00000000e-05 1.70000000e-05 -3.70000000e-05 0.00000000e+00
 4.28000000e-01 -1.70000000e-05 -2.80000000e-05 -1.10000000e-05 2.20000000e-05 -3.00000000e-06 -1.90000000e-05 0.00000000e+00
 4.32000000e-01 -4.00000000e-06 -1.40000000e-05 -1.00000000e-05 9.00000000e-06 3.00000000e-06 -1.20000000e-05 0.00000000e+00
 4.36000000e-01 -4.00000000e-06 -2.50000000e-05 -2.10000000e-05 1.40000000e-05 8.00000000e-06 -2.30000000e-05 0.00000000e+00
 4.40000000e-01 -1.50000000e-05 -2.20000000e-05 -7.00000000e-06 1.90000000e-05 -4.00000000e-06 -1.50000000e-05 0.00000000e+00
 4.44000000e-01 -1.70000000e-05 -3.20000000e-05 -1.50000000e-05 2.40000000e-05 -1.00000000e-06 -2.30000000e-05 0.00000000e+00
 4.48000000e-01 -2.30000000e-05 -3.50000000e-05 -1.30000000e-05 2.90000000e-05 -5.00000000e-06 -2.40000000e-05 0.00000000e+00
 4.52000000e-01 -2.50000000e-05 -3.30000000e-05 -8.00000000e-06 2.90000000e-05 -8.00000000e-06 -2.10000000e-05 0.00000000e+00
 4.56000000e-01 -2.30000000e-05 -4.90000000e-05 -2.60000000e-05 3.60000000e-05 2.00000000e-06 -3.80000000e-05 0.00000000e+00
 4.60000000e-01 -2.40000000e-05 -4.30000000e-05 -1.90000000e-05 3.30000000e-05 -2.00000000e-06 -3.10000000e-05 0.00000000e+00
 4.64000000e-01 -1.60000000e-05 -4.00000000e-05 -2.40000000e-05 2.80000000e-05 4.00000000e-06 -3.20000000e-05 0.00000000e+00
 4.68000000e-01 -9.00000000e-06 -2.30000000e-05 -1.30000000e-05 1.60000000e-05 2.00000000e-06 -1.80000000e-05 0.00000000e+00
 4.72000000e-01 -3.00000000e-06 -2.00000000e-05 -1.70000000e-05 1.10000000e-05 7.00000000e-06 -1.90000000e-05 0.00000000e+00
 4.76000000e-01 -1.00000000e-05 -3.90000000e-05 -2.90000000e-05 2.40000000e-05 1.00000000e-05 -3.40000000e-05 0.00000000e+00
 4.80000000e-01 -9.00000000e-06 -3.40000000e-05 -2.60000000e-05 2.10000000e-05 9.00000000e-06 -3.00000000e-05 0.00000000e+00
 4.84000000e-01 -5.00000000e-06 -3.90000000e-05 -3.40000000e-05 2.20000000e-05 1.40000000e-05 -3.60000000e-05 0.00000000e+00
 4.88000000e-01 -2.10000000e-05 -3.90000000e-05 -1.80000000e-05 3.00000000e-05 -1.00000000e-06 -2.90000000e-05 0.00000000e+00
 4.92000000e-01 -2.00000000e-05 -4.60000000e-05 -2.60000000e-05 3.30000000e-05 3.00000000e-06 -3.60000000e-05 0.00000000e+00
 4.96000000e-01 -1.20000000e-05 -5.80000000e-05 -4.60000000e-05 3.50000000e-05 1.70000000e-05 -5.20000000e-05 0.00000000e+00
 5.00000000e-01 -1.10000000e-05 -5.20000000e-05 -4.10000000e-05 3.20000000e-05 1.50000000e-05 -4.60000000e-05 0.00000000e+00
 5.04000000e-01 -6.00000000e-06 -4.90000000e-05 -4.30000000e-05 2.80000000e-05 1.80000000e-05 -4.60000000e-05 0.00000000e+00
 5.08000000e-01 -4.00000000e-06 -3.30000000e-05 -2.90000000e-05 1.90000000e-05 1.20000000e-05 -3.10000000e-05 0.00000000e+00
 5.12000000e-01 1.00000000e-06 -2.90000000e-05 -3.00000000e-05 1.40000000e-05 1.50000000e-05 -2.90000000e-05 0.00000000e+00
 5.16000000e-01 0.00000000e+00 -4.70000000e-05 -4.80000000e-05 2.40000000e-05 2.40000000e-05 -4.70000000e-05 0.00000000e+00
 5.20000000e-01 -6.00000000e-06 -3.30000000e-05 -2.80000000e-05 1.90000000e-05 1.10000000e-05 -3.10000000e-05 0.00000000e+00
 5.24000000e-01 -1.10000000e-05 -5.20000000e-05 -4.10000000e-05 3.10000000e-05 1.50000000e-05 -4.60000000e-05 0.00000000e+00
 5.28000000e-01 -1.10000000e-05 -4.60000000e-05 -3.50000000e-05 2.80000000e-05 1.20000000e-05 -4.10000000e-05 0.00000000e+00
 5.32000000e-01 -8.00000000e-06 -5.00000000e-05 -4.20000000e-05 2.90000000e-05 1.70000000e-05 -4.60000000e-05 0.00000000e+00
 5.36000000e-01 -1.00000000e-05 -5.60000000e-05 -4.60000000e-05 3.30000000e-05 1.80000000e-05 -5.10000000e-05 0.00000000e+00
 5.40000000e-01 -1.70000000e-05 -4.90000000e-05 -3.20000000e-05 3.30000000e-05 8.00000000e-06 -4.10000000e-05 0.00000000e+00
 5.44000000e-01 -9.00000000e-06 -5.40000000e-05 -4.50000000e-05 3.10000000e-05 1.80000000e-05 -4.90000000e-05 0.00000000e+00
 5.48000000e-01 -8.00000000e-06 -4.50000000e-05 -3.70000000e-05 2.60000000e-05 1.40000000e-05 -4.10000000e-05 0.00000000e+00
 5.52000000e-01 -1.10000000e-05 -4.90000000e-05 -3.80000000e-05 3.00000000e-05 1.30000000e-05 -4.30000000e-05 0.00000000e+00
 5.56000000e-01 -1.80000000e-05 -5.10000000e-05 -3.40000000e-05 3.50000000e-05 8.00000000e-06 -4.20000000e-05 0.00000000e+00
 5.60000000e-01 -1.50000000e-05 -3.30000000e-05 -1.80000000e-05 2.40000000e-05 2.00000000e-06 -2.60000000e-05 0.00000000e+00
 5.64000000e-01 -6.00000000e-06 -4.00000000e-05 -3.40000000e-05 2.30000000e-05 1.40000000e-05 -3.70000000e-05 0.00000000e+00
 5.68000000e-01 -9.00000000e-06 -4.40000000e-05 -3.50000000e-05 2.70000000e-05 1.30000000e-05 -4.00000000e-05 0.00000000e+00
 5.72000000e-01 -5.00000000e-06 -4.70000000e-05 -4.20000000e-05 2.60000000e-05 1.90000000e-05 -4.50000000e-05 0.00000000e+00
 5.76000000e-01 -9.00000000e-06 -5.40000000e-05 -4.50000000e-05 3.20000000e-05 1.80000000e-05 -4.90000000e-05 0.00000000e+00
 5.80000000e-01 -1.20000000e-05 -2.80000000e-05 -1.70000000e-05 2.00000000e-05 2.00000000e-06 -2.30000000e-05 0.00000000e+00
 5.84000000e-01 -1.10000000e-05 -1.90000000e-05 -9.00000000e-06 1.50000000e-05 -1.00000000e-06 -1.40000000e-05 0.00000000e+00
 5.88000000e-01 -3.00000000e-06 6.00000000e-06 8.00000000e-06 -1.00000000e-06 -5.00000000e-06 7.00000000e-06 0.00000000e+00
 5.92000000e-01 1.20000000e-05 2.10000000e-05 9.00000000e-06 -1.70000000e-05 2.00000000e-06 1.50000000e-05 0.00000000e+00
 5.96000000e-01 9.00000000e-06 1.80000000e-05 9.00000000e-06 -1.30000000e-05 0.00000000e+00 1.30000000e-05 0.00000000e+00
 6.00000000e-01 1.10000000e-05 3.90000000e-05 2.80000000e-05 -2.50000000e-05 -8.00000000e-06 3.40000000e-05 0.00000000e+00
 6.04000000e-01 2.90000000e-05 5.00000000e-05 2.10000000e-05 -3.90000000e-05 4.00000000e-06 3.60000000e-05 0.00000000e+00
 6.08000000e-01 2.70000000e-05 7.10000000e-05 4.30000000e-05 -4.90000000e-05 -8.00000000e-06 5.70000000e-05 0.00000000e+00
 6.12000000e-01 3.00000000e-05 7.00000000e-05 4.00000000e-05 -5.00000000e-05 -5.00000000e-06 5.50000000e-05 0.00000000e+00
 6.16000000e-01 3.50000000e-05 6.00000000e-05 2.50000000e-05 -4.70000000e-05 5.00000000e-06 4.30000000e-05 0.00000000e+00
 6.20000000e-01 3.60000000e-05 7.30000000e-05 3.70000000e-05 -5.50000000e-05 -0.00000000e+00 5.50000000e-05 0.00000000e+00
 6.24000000e-01 4.40000000e-05 7.20000000e-05 2.80000000e-05 -5.80000000e-05 8.00000000e-06 5.00000000e-05 0.00000000e+00
 6.28000000e-01 4.40000000e-05 7.30000000e-05 2.90000000e-05 -5.80000000e-05 7.00000000e-06 5.10000000e-05 0.00000000e+00
 6.32000000e-01 4.50000000e-05 6.10000000e-05 1.60000000e-05 -5.30000000e-05 1.40000000e-05 3.80000000e-05 0.00000000e+00
 6.36000000e-01 5.00000000e-05 5.90000000e-05 9.00000000e-06 -5.50000000e-05 2.10000000e-05 3.40000000e-05 0.00000000e+00
 6.40000000e-01 3.20000000e-05 4.50000000e-05 1.30000000e-05 -3.90000000e-05 1.00000000e-05 2.90000000e-05 0.00000000e+00
 6.44000000e-01 3.20000000e-05 2.40000000e-05 -8.00000000e-06 -2.80000000e-05 2.00000000e-05 8.00000000e-06 0.00000000e+00
 6.48000000e-01 2.40000000e-05 6.00000000e-06 -1.80000000e-05 -1.50000000e-05 2.10000000e-05 -6.00000000e-06 0.00000000e+00
 6.52000000e-01 1.50000000e-05 -1.30000000e-05 -2.80000000e-05 -1.00000000e-06 2.10000000e-05 -2.00000000e-05 0.00000000e+00
 6.56000000e-01 1.10000000e-05 -3.40000000e-05 -4.50000000e-05 1.10000000e-05 2.80000000e-05 -3.90000000e-05 0.00000000e+00
 6.60000000e-01 7.00000000e-06 -4.30000000e-05 -5.00000000e-05 1.80000000e-05 2.80000000e-05 -4.70000000e-05 0.00000000e+00
 6.64000000e-01 8.00000000e-06 -5.90000000e-05 -6.70000000e-05 2.60000000e-05 3.80000000e-05 -6.30000000e-05 0.00000000e+00
 6.68000000e-01 -7.00000000e-06 -5.90000000e-05 -5.20000000e-05 3.30000000e-05 2.20000000e-05 -5.50000000e-05 0.00000000e+00
 6.72000000e-01 -2.60000000e-05 -5.80000000e-05 -3.20000000e-05 4.20000000e-05 3.00000000e-06 -4.50000000e-05 0.00000000e+00
 6.76000000e-01 -9.00000000e-06 -6.40000000e-05 -5.50000000e-05 3.60000000e-05 2.30000000e-05 -5.90000000e-05 0.00000000e+00
 6.80000000e-01 -1.00000000e-05 -7.00000000e-05 -6.00000000e-05 4.00000000e-05 2.50000000e-05 -6.50000000e-05 0.00000000e+00
 6.84000000e-01 -1.10000000e-05 -8.20000000e-05 -7.10000000e-05 4.70000000e-05 3.00000000e-05 -7.70000000e-05 0.00000000e+00
 6.88000000e-01 -3.00000000e-06 -7.00000000e-05 -6.70000000e-05 3.60000000e-05 3.20000000e-05 -6.80000000e-05 0.00000000e+00
 6.92000000e-01 -1.10000000e-05 -7.30000000e-05 -6.20000000e-05 4.20000000e-05 2.50000000e-05 -6.70000000e-05 0.00000000e+00
 6.96000000e-01 -8.00000000e-06 -8.90000000e-05 -8.10000000e-05 4.80000000e-05 3.60000000e-05 -8.50000000e-05 0.00000000e+00
 7.00000000e-01 -1.10000000e-05 -7.20000000e-05 -6.10000000e-05 4.20000000e-05 2.50000000e-05 -6.70000000e-05 0.00000000e+00
 7.04000000e-01 -5.00000000e-06 -7.10000000e-05 -6.60000000e-05 3.80000000e-05 3.10000000e-05 -6.80000000e-05 0.00000000e+00
 7.08000000e-01 -1.50000000e-05 -7.50000000e-05 -6.00000000e-05 4.50000000e-05 2.30000000e-05 -6.70000000e-05 0.00000000e+00
 7.12000000e-01 -1.80000000e-05 -9.00000000e-05 -7.20000000e-05 5.40000000e-05 2.70000000e-05 -8.10000000e-05 0.00000000e+00
 7.16000000e-01 -1.50000000e-05 -8.40000000e-05 -7.00000000e-05 4.90000000e-05 2.70000000e-05 -7.70000000e-05 0.00000000e+00
 7.20000000e-01 -1.50000000e-05 -6.60000000e-05 -5.10000000e-05 4.00000000e-05 1.80000000e-05 -5.80000000e-05 0.00000000e+00
 7.24000000e-01 -1.20000000e-05 -7.60000000e-05 -6.40000000e-05 4.40000000e-05 2.60000000e-05 -7.00000000e-05 0.00000000e+00
 7.28000000e-01 -9.00000000e-06 -7.80000000e-05 -7.00000000e-05 4.40000000e-05 3.00000000e-05 -7.40000000e-05 0.00000000e+00
 7.32000000e-01 -1.40000000e-05 -7.90000000e-05 -6.50000000e-05 4.70000000e-05 2.50000000e-05 -7.20000000e-05 0.00000000e+00
 7.36000000e-01 -1.10000000e-05 -7.90000000e-05 -6.70000000e-05 4.50000000e-05 2.80000000e-05 -7.30000000e-05 0.00000000e+00
 7.40000000e-01 -1.30000000e-05 -7.20000000e-05 -5.90000000e-05 4.30000000e-05 2.30000000e-05 -6.60000000e-05 0.00000000e+00
 7.44000000e-01 -2.10000000e-05 -8.50000000e-05 -6.40000000e-05 5.30000000e-05 2.10000000e-05 -7.40000000e-05 0.00000000e+00
 7.48000000e-01 -1.30000000e-05 -7.60000000e-05 -6.30000000e-05 4.50000000e-05 2.50000000e-05 -7.00000000e-05 0.00000000e+00
 7.52000000e-01 -1.30000000e-05 -8.90000000e-05 -7.60000000e-05 5.10000000e-05 3.10000000e-05 -8.20000000e-05 0.00000000e+00
 7.56000000e-01 -1.80000000e-05 -1.23000000e-04 -1.05000000e-04 7.00000000e-05 4.30000000e-05 -1.14000000e-04 0.00000000e+00
 7.60000000e-01 -2.60000000e-05 -1.62000000e-04 -1.36000000e-04 9.40000000e-05 5.50000000e-05 -1.49000000e-04 0.00000000e+00
 7.64000000e-01 -3.30000000e-05 -2.10000000e-04 -1.77000000e-04 1.22000000e-04 7.20000000e-05 -1.93000000e-04 0.00000000e+00
 7.68000000e-01 -2.80000000e-05 -1.85000000e-04 -1.58000000e-04 1.07000000e-04 6.50000000e-05 -1.71000000e-04 0.00000000e+00
 7.72000000e-01 3.00000000e-06 -1.08000000e-04 -1.11000000e-04 5.20000000e-05 5.70000000e-05 -1.09000000e-04 0.00000000e+00
 7.76000000e-01 7.50000000e-05 1.80000000e-05 -5.70000000e-05 -4.70000000e-05 6.60000000e-05 -1.90000000e-05 0.00000000e+00
 7.80000000e-01 1.83000000e-04 1.94000000e-04 1.10000000e-05 -1.89000000e-04 8.60000000e-05 1.02000000e-04 0.00000000e+00
 7.84000000e-01 3.25000000e-04 4.10000000e-04 8.60000000e-05 -3.68000000e-04 1.19000000e-04 2.48000000e-04 0.00000000e+00
 7.88000000e-01 4.80000000e-04 7.06000000e-04 2.27000000e-04 -5.93000000e-04 1.27000000e-04 4.66000000e-04 0.00000000e+00
 7.92000000e-01 5.36000000e-04 9.60000000e-04 4.24000000e-04 -7.48000000e-04 5.60000000e-05 6.92000000e-04 0.00000000e+00
 7.96000000e-01 4.77000000e-04 1.05100000e-03 5.74000000e-04 -7.64000000e-04 -4.80000000e-05 8.12000000e-04 0.00000000e+00
 8.00000000e-01 3.84000000e-04 9.21000000e-04 5.37000000e-04 -6.53000000e-04 -7.60000000e-05 7.29000000e-04 0.00000000e+00
 8.04000000e-01 2.32000000e-04 6.47000000e-04 4.15000000e-04 -4.39000000e-04 -9.20000000e-05 5.31000000e-04 0.00000000e+00
 8.08000000e-01 7.10000000e-05 3.38000000e-04 2.67000000e-04 -2.04000000e-04 -9.80000000e-05 3.03000000e-04 0.00000000e+00
 8.12000000e-01 -1.90000000e-05 5.60000000e-05 7.50000000e-05 -1.90000000e-05 -4.70000000e-05 6.50000000e-05 0.00000000e+00
 8.16000000e-01 -2.20000000e-05 -8.70000000e-05 -6.50000000e-05 5.40000000e-05 2.20000000e-05 -7.60000000e-05 7.57575760e+01
 8.20000000e-01 -2.80000000e-05 -1.00000000e-04 -7.20000000e-05 6.40000000e-05 2.20000000e-05 -8.60000000e-05 0.00000000e+00
 8.24000000e-01 -2.20000000e-05 -6.30000000e-05 -4.10000000e-05 4.20000000e-05 9.00000000e-06 -5.20000000e-05 0.00000000e+00
 8.28000000e-01 -2.80000000e-05 -3.80000000e-05 -9.00000000e-06 3.30000000e-05 -1.00000000e-05 -2.40000000e-05 0.00000000e+00
 8.32000000e-01 -2.10000000e-05 -5.70000000e-05 -3.60000000e-05 3.90000000e-05 8.00000000e-06 -4.70000000e-05 0.00000000e+00
 8.36000000e-01 -1.80000000e-05 -6.90000000e-05 -5.10000000e-05 4.30000000e-05 1.60000000e-05 -6.00000000e-05 0.00000000e+00
 8.40000000e-01 -2.10000000e-05 -4.40000000e-05 -2.40000000e-05 3.30000000e-05 1.00000000e-06 -3.40000000e-05 0.00000000e+00
 8.44000000e-01 -2.50000000e-05 -4.80000000e-05 -2.30000000e-05 3.70000000e-05 -1.00000000e-06 -3.60000000e-05 0.00000000e+00
 8.48000000e-01 -2.60000000e-05 -6.20000000e-05 -3.60000000e-05 4.40000000e-05 5.00000000e-06 -4.90000000e-05 0.00000000e+00
 8.52000000e-01 -2.10000000e-05 -7.50000000e-05 -5.40000000e-05 4.80000000e-05 1.60000000e-05 -6.40000000e-05 0.00000000e+00
 8.56000000e-01 -2.10000000e-05 -8.70000000e-05 -6.60000000e-05 5.40000000e-05 2.30000000e-05 -7.70000000e-05 0.00000000e+00
 8.60000000e-01 -2.10000000e-05 -6.70000000e-05 -4.60000000e-05 4.40000000e-05 1.20000000e-05 -5.60000000e-05 0.00000000e+00
 8.64000000e-01 -1.80000000e-05 -7.00000000e-05 -5.20000000e-05 4.40000000e-05 1.70000000e-05 -6.10000000e-05 0.00000000e+00
 8.68000000e-01 -1.70000000e-05 -6.60000000e-05 -4.80000000e-05 4.20000000e-05 1.50000000e-05 -5.70000000e-05 0.00000000e+00
 8.72000000e-01 -1.10000000e-05 -7.30000000e-05 -6.20000000e-05 4.20000000e-05 2.60000000e-05 -6.80000000e-05 0.00000000e+00
 8.76000000e-01 -1.40000000e-05 -9.30000000e-05 -7.90000000e-05 5.30000000e-05 3.30000000e-05 -8.60000000e-05 0.00000000e+00
 8.80000000e-01 -1.20000000e-05 -7.10000000e-05 -5.90000000e-05 4.20000000e-05 2.30000000e-05 -6.50000000e-05 0.00000000e+00
 8.84000000e-01 -5.00000000e-06 -6.00000000e-05 -5.50000000e-05 3.20000000e-05 2.50000000e-05 -5.70000000e-05 0.00000000e+00
 8.88000000e-01 -7.00000000e-06 -6.10000000e-05 -5.40000000e-05 3.40000000e-05 2.30000000e-05 -5.80000000e-05 0.00000000e+00
 8.92000000e-01 -7.00000000e-06 -7.00000000e-05 -6.40000000e-05 3.80000000e-05 2.90000000e-05 -6.70000000e-05 0.00000000e+00
 8.96000000e-01 -1.10000000e-05 -7.40000000e-05 -6.20000000e-05 4.30000000e-05 2.50000000e-05 -6.80000000e-05 0.00000000e+00
 9.00000000e-01 -1.90000000e-05 -5.90000000e-05 -3.90000000e-05 3.90000000e-05 1.00000000e-05 -4.90000000e-05 0.00000000e+00
 9.04000000e-01 -9.00000000e-06 -5.60000000e-05 -4.70000000e-05 3.30000000e-05 1.90000000e-05 -5.20000000e-05 0.00000000e+00
 9.08000000e-01 -1.00000000e-05 -5.90000000e-05 -4.90000000e-05 3.40000000e-05 1.90000000e-05 -5.40000000e-05 0.00000000e+00
 9.12000000e-01 -1.60000000e-05 -7.00000000e-05 -5.40000000e-05 4.30000000e-05 1.90000000e-05 -6.20000000e-05 0.00000000e+00
 9.16000000e-01 -1.80000000e-05 -8.00000000e-05 -6.20000000e-05 4.90000000e-05 2.20000000e-05 -7.10000000e-05 0.00000000e+00
 9.20000000e-01 -1.70000000e-05 -5.70000000e-05 -4.00000000e-05 3.70000000e-05 1.10000000e-05 -4.90000000e-05 0.00000000e+00
 9.24000000e-01 -1.00000000e-05 -4.80000000e-05 -3.80000000e-05 2.90000000e-05 1.40000000e-05 -4.30000000e-05 0.00000000e+00
 9.28000000e-01 -8.00000000e-06 -4.10000000e-05 -3.30000000e-05 2.50000000e-05 1.30000000e-05 -3.70000000e-05 0.00000000e+00
 9.32000000e-01 -1.60000000e-05 -6.10000000e-05 -4.50000000e-05 3.80000000e-05 1.50000000e-05 -5.30000000e-05 0.00000000e+00
 9.36000000e-01 -1.80000000e-05 -6.50000000e-05 -4.80000000e-05 4.20000000e-05 1.50000000e-05 -5.70000000e-05 0.00000000e+00
 9.40000000e-01 -1.70000000e-05 -4.70000000e-05 -3.00000000e-05 3.20000000e-05 7.00000000e-06 -3.90000000e-05 0.00000000e+00
 9.44000000e-01 -3.00000000e-06 -4.80000000e-05 -4.50000000e-05 2.50000000e-05 2.10000000e-05 -4.60000000e-05 0.00000000e+00
 9.48000000e-01 0.00000000e+00 -3.90000000e-05 -4.00000000e-05 1.90000000e-05 2.00000000e-05 -4.00000000e-05 0.00000000e+00
 9.52000000e-01 3.00000000e-06 -4.60000000e-05 -5.00000000e-05 2.20000000e-05 2.70000000e-05 -4.80000000e-05 0.00000000e+00
 9.56000000e-01 7.00000000e-06 -5.50000000e-05 -6.20000000e-05 2.40000000e-05 3.50000000e-05 -5.80000000e-05 0.00000000e+00
 9.60000000e-01 3.00000000e-06 -4.10000000e-05 -4.40000000e-05 1.90000000e-05 2.30000000e-05 -4.30000000e-05 0.00000000e+00
 9.64000000e-01 9.00000000e-06 -3.40000000e-05 -4.30000000e-05 1.20000000e-05 2.60000000e-05 -3.90000000e-05 0.00000000e+00
 9.68000000e-01 8.00000000e-06 -3.30000000e-05 -4.10000000e-05 1.30000000e-05 2.40000000e-05 -3.70000000e-05 0.00000000e+00
 9.72000000e-01 1.40000000e-05 -3.20000000e-05 -4.60000000e-05 9.00000000e-06 3.00000000e-05 -3.90000000e-05 0.00000000e+00
 9.76000000e-01 2.50000000e-05 -3.30000000e-05 -5.80000000e-05 4.00000000e-06 4.10000000e-05 -4.60000000e-05 0.00000000e+00
 9.80000000e-01 2.40000000e-05 -2.10000000e-05 -4.50000000e-05 -2.00000000e-06 3.40000000e-05 -3.30000000e-05 0.00000000e+00
 9.84000000e-01 2.80000000e-05 -1.40000000e-05 -4.20000000e-05 -7.00000000e-06 3.50000000e-05 -2.80000000e-05 0.00000000e+00
 9.88000000e-01 3.30000000e-05 -4.00000000e-06 -3.60000000e-05 -1.50000000e-05 3.50000000e-05 -2.00000000e-05 0.00000000e+00
 9.92000000e-01 4.50000000e-05 -0.00000000e+00 -4.50000000e-05 -2.20000000e-05 4.50000000e-05 -2.30000000e-05 0.00000000e+00
 9.96000000e-01 6.30000000e-05 7.00000000e-06 -5.60000000e-05 -3.50000000e-05 5.90000000e-05 -2.50000000e-05 0.00000000e+00
 1.00000000e+00 7.20000000e-05 1.40000000e-05 -5.80000000e-05 -4.30000000e-05 6.50000000e-05 -2.20000000e-05 0.00000000e+00
 1.00400000e+00 8.70000000e-05 1.90000000e-05 -6.70000000e-05 -5.30000000e-05 7.70000000e-05 -2.40000000e-05 0.00000000e+00
 1.00800000e+00 9.20000000e-05 3.80000000e-05 -5.40000000e-05 -6.50000000e-05 7.30000000e-05 -8.00000000e-06 0.00000000e+00
 1.01200000e+00 9.60000000e-05 5.20000000e-05 -4.50000000e-05 -7.40000000e-05 7.00000000e-05 3.00000000e-06 0.00000000e+00
 1.01600000e+00 1.06000000e-04 4.90000000e-05 -5.70000000e-05 -7.80000000e-05 8.20000000e-05 -4.00000000e-06 0.00000000e+00
 1.02000000e+00 1.15000000e-04 6.90000000e-05 -4.60000000e-05 -9.20000000e-05 8.00000000e-05 1.20000000e-05 0.00000000e+00
 1.02400000e+00 1.13000000e-04 7.30000000e-05 -3.90000000e-05 -9.30000000e-05 7.60000000e-05 1.70000000e-05 0.00000000e+00
 1.02800000e+00 1.11000000e-04 9.30000000e-05 -1.80000000e-05 -1.02000000e-04 6.40000000e-05 3.80000000e-05 0.00000000e+00
 1.03200000e+00 1.20000000e-04 1.07000000e-04 -1.30000000e-05 -1.14000000e-04 6.70000000e-05 4.70000000e-05 0.00000000e+00
 1.03600000e+00 1.24000000e-04 1.01000000e-04 -2.20000000e-05 -1.12000000e-04 7.30000000e-05 3.90000000e-05 0.00000000e+00
